# fe1_the_008_017_photoabs_h_SMLO.dat                    
#
# Z =  8, A = 17
#
# Parameters:  Er1 = 23.460,  Wr1 =  5.950,  S1 =   0.783,  beta=  0.116
# No. of entries:  300
# Col 1: photon energy E in MeV
# Col 2-11: E1 photoabsorption PSF (fe1 in MeV^-3) for nucleus at the temperatures T=0-2 MeV
# Format: f9.3, 11e12.3
# Authors:  V.A.Plujko, O.M. Gorbachenko, K.M. Solodovnyk (TSNU)
#   E         T=0.0       T=0.2       T=0.4       T=0.6       T=0.8       T=1.0       T=1.2       T=1.4       T=1.6       T=1.8       T=2.0
    0.100   0.920E-13   0.391E-12   0.154E-11   0.423E-11   0.922E-11   0.172E-10   0.290E-10   0.454E-10   0.669E-10   0.945E-10   0.129E-09
    0.200   0.368E-12   0.778E-12   0.219E-11   0.523E-11   0.106E-10   0.191E-10   0.314E-10   0.484E-10   0.706E-10   0.989E-10   0.134E-09
    0.300   0.828E-12   0.131E-11   0.298E-11   0.636E-11   0.122E-10   0.211E-10   0.340E-10   0.515E-10   0.744E-10   0.103E-09   0.139E-09
    0.400   0.147E-11   0.199E-11   0.390E-11   0.761E-11   0.138E-10   0.233E-10   0.367E-10   0.548E-10   0.784E-10   0.108E-09   0.145E-09
    0.500   0.230E-11   0.285E-11   0.496E-11   0.900E-11   0.156E-10   0.255E-10   0.395E-10   0.582E-10   0.825E-10   0.113E-09   0.151E-09
    0.600   0.332E-11   0.388E-11   0.618E-11   0.105E-10   0.176E-10   0.280E-10   0.425E-10   0.618E-10   0.867E-10   0.118E-09   0.156E-09
    0.700   0.452E-11   0.510E-11   0.757E-11   0.122E-10   0.197E-10   0.305E-10   0.456E-10   0.656E-10   0.912E-10   0.123E-09   0.162E-09
    0.800   0.590E-11   0.652E-11   0.912E-11   0.141E-10   0.219E-10   0.333E-10   0.489E-10   0.695E-10   0.958E-10   0.129E-09   0.169E-09
    0.900   0.747E-11   0.812E-11   0.109E-10   0.161E-10   0.243E-10   0.361E-10   0.523E-10   0.735E-10   0.101E-09   0.134E-09   0.175E-09
    1.000   0.923E-11   0.992E-11   0.128E-10   0.183E-10   0.269E-10   0.392E-10   0.559E-10   0.777E-10   0.105E-09   0.140E-09   0.181E-09
    1.100   0.112E-10   0.119E-10   0.149E-10   0.206E-10   0.296E-10   0.424E-10   0.597E-10   0.821E-10   0.111E-09   0.146E-09   0.188E-09
    1.200   0.133E-10   0.141E-10   0.172E-10   0.232E-10   0.325E-10   0.458E-10   0.636E-10   0.867E-10   0.116E-09   0.152E-09   0.195E-09
    1.300   0.156E-10   0.165E-10   0.196E-10   0.259E-10   0.356E-10   0.493E-10   0.677E-10   0.915E-10   0.121E-09   0.158E-09   0.202E-09
    1.400   0.182E-10   0.191E-10   0.223E-10   0.288E-10   0.389E-10   0.531E-10   0.720E-10   0.964E-10   0.127E-09   0.164E-09   0.210E-09
    1.500   0.209E-10   0.218E-10   0.252E-10   0.319E-10   0.423E-10   0.570E-10   0.765E-10   0.102E-09   0.133E-09   0.171E-09   0.217E-09
    1.600   0.238E-10   0.248E-10   0.283E-10   0.352E-10   0.460E-10   0.611E-10   0.812E-10   0.107E-09   0.139E-09   0.178E-09   0.225E-09
    1.700   0.269E-10   0.279E-10   0.316E-10   0.387E-10   0.498E-10   0.654E-10   0.860E-10   0.112E-09   0.145E-09   0.185E-09   0.233E-09
    1.800   0.302E-10   0.313E-10   0.351E-10   0.424E-10   0.539E-10   0.699E-10   0.911E-10   0.118E-09   0.152E-09   0.192E-09   0.241E-09
    1.900   0.337E-10   0.348E-10   0.388E-10   0.463E-10   0.581E-10   0.746E-10   0.963E-10   0.124E-09   0.158E-09   0.200E-09   0.249E-09
    2.000   0.373E-10   0.386E-10   0.427E-10   0.504E-10   0.626E-10   0.795E-10   0.102E-09   0.130E-09   0.165E-09   0.207E-09   0.258E-09
    2.100   0.412E-10   0.426E-10   0.468E-10   0.548E-10   0.672E-10   0.846E-10   0.107E-09   0.136E-09   0.172E-09   0.215E-09   0.267E-09
    2.200   0.453E-10   0.467E-10   0.511E-10   0.593E-10   0.721E-10   0.900E-10   0.113E-09   0.143E-09   0.179E-09   0.223E-09   0.276E-09
    2.300   0.496E-10   0.511E-10   0.556E-10   0.641E-10   0.772E-10   0.955E-10   0.119E-09   0.150E-09   0.187E-09   0.232E-09   0.285E-09
    2.400   0.541E-10   0.556E-10   0.603E-10   0.690E-10   0.825E-10   0.101E-09   0.126E-09   0.157E-09   0.195E-09   0.240E-09   0.295E-09
    2.500   0.588E-10   0.604E-10   0.653E-10   0.742E-10   0.880E-10   0.107E-09   0.132E-09   0.164E-09   0.203E-09   0.249E-09   0.304E-09
    2.600   0.637E-10   0.654E-10   0.705E-10   0.796E-10   0.938E-10   0.113E-09   0.139E-09   0.171E-09   0.211E-09   0.258E-09   0.314E-09
    2.700   0.689E-10   0.706E-10   0.758E-10   0.853E-10   0.998E-10   0.120E-09   0.146E-09   0.179E-09   0.219E-09   0.268E-09   0.325E-09
    2.800   0.742E-10   0.760E-10   0.814E-10   0.911E-10   0.106E-09   0.127E-09   0.153E-09   0.187E-09   0.228E-09   0.277E-09   0.335E-09
    2.900   0.798E-10   0.816E-10   0.873E-10   0.972E-10   0.112E-09   0.133E-09   0.161E-09   0.195E-09   0.237E-09   0.287E-09   0.346E-09
    3.000   0.856E-10   0.875E-10   0.933E-10   0.104E-09   0.119E-09   0.141E-09   0.169E-09   0.204E-09   0.246E-09   0.297E-09   0.357E-09
    3.100   0.916E-10   0.936E-10   0.996E-10   0.110E-09   0.126E-09   0.148E-09   0.176E-09   0.212E-09   0.256E-09   0.308E-09   0.369E-09
    3.200   0.978E-10   0.999E-10   0.106E-09   0.117E-09   0.133E-09   0.156E-09   0.185E-09   0.221E-09   0.265E-09   0.318E-09   0.380E-09
    3.300   0.104E-09   0.106E-09   0.113E-09   0.124E-09   0.141E-09   0.163E-09   0.193E-09   0.230E-09   0.275E-09   0.329E-09   0.392E-09
    3.400   0.111E-09   0.113E-09   0.120E-09   0.131E-09   0.148E-09   0.172E-09   0.202E-09   0.240E-09   0.286E-09   0.340E-09   0.404E-09
    3.500   0.118E-09   0.120E-09   0.127E-09   0.139E-09   0.156E-09   0.180E-09   0.211E-09   0.249E-09   0.296E-09   0.352E-09   0.417E-09
    3.600   0.125E-09   0.127E-09   0.134E-09   0.146E-09   0.164E-09   0.189E-09   0.220E-09   0.259E-09   0.307E-09   0.364E-09   0.430E-09
    3.700   0.132E-09   0.135E-09   0.142E-09   0.154E-09   0.173E-09   0.198E-09   0.230E-09   0.270E-09   0.318E-09   0.376E-09   0.443E-09
    3.800   0.140E-09   0.143E-09   0.150E-09   0.163E-09   0.181E-09   0.207E-09   0.240E-09   0.280E-09   0.330E-09   0.388E-09   0.456E-09
    3.900   0.148E-09   0.151E-09   0.158E-09   0.171E-09   0.190E-09   0.216E-09   0.250E-09   0.291E-09   0.341E-09   0.401E-09   0.470E-09
    4.000   0.156E-09   0.159E-09   0.167E-09   0.180E-09   0.200E-09   0.226E-09   0.260E-09   0.302E-09   0.353E-09   0.414E-09   0.484E-09
    4.100   0.165E-09   0.167E-09   0.175E-09   0.189E-09   0.209E-09   0.236E-09   0.271E-09   0.314E-09   0.366E-09   0.427E-09   0.499E-09
    4.200   0.173E-09   0.176E-09   0.184E-09   0.198E-09   0.219E-09   0.246E-09   0.282E-09   0.325E-09   0.378E-09   0.441E-09   0.513E-09
    4.300   0.182E-09   0.185E-09   0.194E-09   0.208E-09   0.229E-09   0.257E-09   0.293E-09   0.337E-09   0.391E-09   0.455E-09   0.529E-09
    4.400   0.191E-09   0.194E-09   0.203E-09   0.218E-09   0.239E-09   0.268E-09   0.304E-09   0.350E-09   0.404E-09   0.469E-09   0.544E-09
    4.500   0.201E-09   0.204E-09   0.213E-09   0.228E-09   0.250E-09   0.279E-09   0.316E-09   0.362E-09   0.418E-09   0.484E-09   0.560E-09
    4.600   0.211E-09   0.214E-09   0.223E-09   0.238E-09   0.261E-09   0.290E-09   0.328E-09   0.375E-09   0.432E-09   0.499E-09   0.576E-09
    4.700   0.221E-09   0.224E-09   0.233E-09   0.249E-09   0.272E-09   0.302E-09   0.341E-09   0.389E-09   0.446E-09   0.514E-09   0.593E-09
    4.800   0.231E-09   0.234E-09   0.244E-09   0.260E-09   0.283E-09   0.314E-09   0.354E-09   0.402E-09   0.461E-09   0.530E-09   0.610E-09
    4.900   0.241E-09   0.245E-09   0.255E-09   0.271E-09   0.295E-09   0.327E-09   0.367E-09   0.416E-09   0.476E-09   0.546E-09   0.627E-09
    5.000   0.252E-09   0.256E-09   0.266E-09   0.283E-09   0.307E-09   0.340E-09   0.381E-09   0.431E-09   0.491E-09   0.562E-09   0.645E-09
    5.100   0.264E-09   0.267E-09   0.277E-09   0.295E-09   0.320E-09   0.353E-09   0.394E-09   0.446E-09   0.507E-09   0.579E-09   0.663E-09
    5.200   0.275E-09   0.279E-09   0.289E-09   0.307E-09   0.333E-09   0.366E-09   0.409E-09   0.461E-09   0.523E-09   0.596E-09   0.681E-09
    5.300   0.287E-09   0.291E-09   0.301E-09   0.320E-09   0.346E-09   0.380E-09   0.423E-09   0.476E-09   0.540E-09   0.614E-09   0.700E-09
    5.400   0.299E-09   0.303E-09   0.314E-09   0.333E-09   0.359E-09   0.394E-09   0.438E-09   0.492E-09   0.556E-09   0.632E-09   0.720E-09
    5.500   0.312E-09   0.315E-09   0.327E-09   0.346E-09   0.373E-09   0.408E-09   0.453E-09   0.508E-09   0.574E-09   0.651E-09   0.739E-09
    5.600   0.324E-09   0.328E-09   0.340E-09   0.359E-09   0.387E-09   0.423E-09   0.469E-09   0.525E-09   0.591E-09   0.670E-09   0.760E-09
    5.700   0.337E-09   0.341E-09   0.353E-09   0.373E-09   0.402E-09   0.439E-09   0.485E-09   0.542E-09   0.610E-09   0.689E-09   0.780E-09
    5.800   0.351E-09   0.355E-09   0.367E-09   0.388E-09   0.416E-09   0.454E-09   0.501E-09   0.559E-09   0.628E-09   0.709E-09   0.802E-09
    5.900   0.365E-09   0.369E-09   0.381E-09   0.402E-09   0.432E-09   0.470E-09   0.518E-09   0.577E-09   0.647E-09   0.729E-09   0.823E-09
    6.000   0.379E-09   0.383E-09   0.396E-09   0.417E-09   0.447E-09   0.486E-09   0.536E-09   0.595E-09   0.666E-09   0.750E-09   0.846E-09
    6.100   0.394E-09   0.398E-09   0.411E-09   0.433E-09   0.463E-09   0.503E-09   0.553E-09   0.614E-09   0.686E-09   0.771E-09   0.868E-09
    6.200   0.409E-09   0.413E-09   0.426E-09   0.448E-09   0.480E-09   0.520E-09   0.571E-09   0.633E-09   0.707E-09   0.792E-09   0.891E-09
    6.300   0.424E-09   0.428E-09   0.442E-09   0.465E-09   0.497E-09   0.538E-09   0.590E-09   0.653E-09   0.727E-09   0.815E-09   0.915E-09
    6.400   0.440E-09   0.444E-09   0.458E-09   0.481E-09   0.514E-09   0.556E-09   0.609E-09   0.673E-09   0.749E-09   0.837E-09   0.939E-09
    6.500   0.456E-09   0.461E-09   0.475E-09   0.498E-09   0.531E-09   0.575E-09   0.628E-09   0.693E-09   0.771E-09   0.861E-09   0.964E-09
    6.600   0.472E-09   0.477E-09   0.492E-09   0.516E-09   0.549E-09   0.593E-09   0.648E-09   0.714E-09   0.793E-09   0.884E-09   0.989E-09
    6.700   0.489E-09   0.494E-09   0.509E-09   0.534E-09   0.568E-09   0.613E-09   0.669E-09   0.736E-09   0.816E-09   0.908E-09   0.102E-08
    6.800   0.507E-09   0.512E-09   0.527E-09   0.552E-09   0.587E-09   0.633E-09   0.689E-09   0.758E-09   0.839E-09   0.933E-09   0.104E-08
    6.900   0.525E-09   0.530E-09   0.545E-09   0.571E-09   0.606E-09   0.653E-09   0.711E-09   0.780E-09   0.863E-09   0.959E-09   0.107E-08
    7.000   0.543E-09   0.548E-09   0.564E-09   0.590E-09   0.626E-09   0.674E-09   0.733E-09   0.804E-09   0.887E-09   0.985E-09   0.110E-08
    7.100   0.562E-09   0.567E-09   0.583E-09   0.609E-09   0.647E-09   0.695E-09   0.755E-09   0.827E-09   0.912E-09   0.101E-08   0.112E-08
    7.200   0.581E-09   0.586E-09   0.603E-09   0.630E-09   0.668E-09   0.717E-09   0.778E-09   0.851E-09   0.938E-09   0.104E-08   0.115E-08
    7.300   0.601E-09   0.606E-09   0.623E-09   0.650E-09   0.689E-09   0.739E-09   0.801E-09   0.876E-09   0.964E-09   0.107E-08   0.118E-08
    7.400   0.621E-09   0.626E-09   0.643E-09   0.671E-09   0.711E-09   0.762E-09   0.825E-09   0.901E-09   0.991E-09   0.109E-08   0.121E-08
    7.500   0.641E-09   0.647E-09   0.664E-09   0.693E-09   0.733E-09   0.786E-09   0.850E-09   0.927E-09   0.102E-08   0.112E-08   0.124E-08
    7.600   0.663E-09   0.669E-09   0.686E-09   0.715E-09   0.756E-09   0.809E-09   0.875E-09   0.954E-09   0.105E-08   0.115E-08   0.128E-08
    7.700   0.684E-09   0.690E-09   0.708E-09   0.738E-09   0.780E-09   0.834E-09   0.901E-09   0.981E-09   0.107E-08   0.118E-08   0.131E-08
    7.800   0.707E-09   0.713E-09   0.731E-09   0.762E-09   0.804E-09   0.859E-09   0.927E-09   0.101E-08   0.110E-08   0.121E-08   0.134E-08
    7.900   0.730E-09   0.736E-09   0.754E-09   0.785E-09   0.829E-09   0.885E-09   0.954E-09   0.104E-08   0.113E-08   0.125E-08   0.137E-08
    8.000   0.753E-09   0.759E-09   0.778E-09   0.810E-09   0.854E-09   0.911E-09   0.982E-09   0.107E-08   0.116E-08   0.128E-08   0.141E-08
    8.100   0.777E-09   0.784E-09   0.803E-09   0.835E-09   0.880E-09   0.938E-09   0.101E-08   0.110E-08   0.120E-08   0.131E-08   0.144E-08
    8.200   0.802E-09   0.808E-09   0.828E-09   0.861E-09   0.907E-09   0.966E-09   0.104E-08   0.113E-08   0.123E-08   0.135E-08   0.148E-08
    8.300   0.827E-09   0.834E-09   0.854E-09   0.887E-09   0.934E-09   0.994E-09   0.107E-08   0.116E-08   0.126E-08   0.138E-08   0.152E-08
    8.400   0.853E-09   0.860E-09   0.880E-09   0.914E-09   0.962E-09   0.102E-08   0.110E-08   0.119E-08   0.129E-08   0.142E-08   0.155E-08
    8.500   0.879E-09   0.886E-09   0.907E-09   0.942E-09   0.991E-09   0.105E-08   0.113E-08   0.122E-08   0.133E-08   0.145E-08   0.159E-08
    8.600   0.907E-09   0.914E-09   0.935E-09   0.970E-09   0.102E-08   0.108E-08   0.116E-08   0.126E-08   0.136E-08   0.149E-08   0.163E-08
    8.700   0.935E-09   0.942E-09   0.963E-09   0.999E-09   0.105E-08   0.111E-08   0.119E-08   0.129E-08   0.140E-08   0.153E-08   0.167E-08
    8.800   0.963E-09   0.971E-09   0.993E-09   0.103E-08   0.108E-08   0.115E-08   0.123E-08   0.132E-08   0.144E-08   0.157E-08   0.171E-08
    8.900   0.993E-09   0.100E-08   0.102E-08   0.106E-08   0.111E-08   0.118E-08   0.126E-08   0.136E-08   0.148E-08   0.161E-08   0.176E-08
    9.000   0.102E-08   0.103E-08   0.105E-08   0.109E-08   0.114E-08   0.121E-08   0.130E-08   0.140E-08   0.151E-08   0.165E-08   0.180E-08
    9.100   0.105E-08   0.106E-08   0.108E-08   0.112E-08   0.118E-08   0.125E-08   0.133E-08   0.143E-08   0.155E-08   0.169E-08   0.184E-08
    9.200   0.109E-08   0.109E-08   0.112E-08   0.116E-08   0.121E-08   0.128E-08   0.137E-08   0.147E-08   0.159E-08   0.173E-08   0.189E-08
    9.300   0.112E-08   0.113E-08   0.115E-08   0.119E-08   0.125E-08   0.132E-08   0.141E-08   0.151E-08   0.164E-08   0.178E-08   0.194E-08
    9.400   0.115E-08   0.116E-08   0.118E-08   0.122E-08   0.128E-08   0.136E-08   0.145E-08   0.155E-08   0.168E-08   0.182E-08   0.198E-08
    9.500   0.118E-08   0.119E-08   0.122E-08   0.126E-08   0.132E-08   0.139E-08   0.149E-08   0.159E-08   0.172E-08   0.187E-08   0.203E-08
    9.600   0.122E-08   0.123E-08   0.125E-08   0.130E-08   0.136E-08   0.143E-08   0.153E-08   0.164E-08   0.177E-08   0.191E-08   0.208E-08
    9.700   0.126E-08   0.126E-08   0.129E-08   0.133E-08   0.139E-08   0.147E-08   0.157E-08   0.168E-08   0.181E-08   0.196E-08   0.213E-08
    9.800   0.129E-08   0.130E-08   0.133E-08   0.137E-08   0.143E-08   0.151E-08   0.161E-08   0.173E-08   0.186E-08   0.201E-08   0.219E-08
    9.900   0.133E-08   0.134E-08   0.137E-08   0.141E-08   0.147E-08   0.156E-08   0.165E-08   0.177E-08   0.191E-08   0.206E-08   0.224E-08
   10.000   0.137E-08   0.138E-08   0.141E-08   0.145E-08   0.152E-08   0.160E-08   0.170E-08   0.182E-08   0.196E-08   0.212E-08   0.229E-08
   10.100   0.141E-08   0.142E-08   0.145E-08   0.149E-08   0.156E-08   0.164E-08   0.174E-08   0.187E-08   0.201E-08   0.217E-08   0.235E-08
   10.200   0.145E-08   0.146E-08   0.149E-08   0.154E-08   0.160E-08   0.169E-08   0.179E-08   0.192E-08   0.206E-08   0.222E-08   0.241E-08
   10.300   0.149E-08   0.150E-08   0.153E-08   0.158E-08   0.165E-08   0.173E-08   0.184E-08   0.197E-08   0.211E-08   0.228E-08   0.247E-08
   10.400   0.154E-08   0.155E-08   0.157E-08   0.162E-08   0.169E-08   0.178E-08   0.189E-08   0.202E-08   0.217E-08   0.234E-08   0.253E-08
   10.500   0.158E-08   0.159E-08   0.162E-08   0.167E-08   0.174E-08   0.183E-08   0.194E-08   0.207E-08   0.222E-08   0.239E-08   0.259E-08
   10.600   0.163E-08   0.164E-08   0.167E-08   0.172E-08   0.179E-08   0.188E-08   0.199E-08   0.213E-08   0.228E-08   0.245E-08   0.265E-08
   10.700   0.167E-08   0.168E-08   0.171E-08   0.177E-08   0.184E-08   0.193E-08   0.205E-08   0.218E-08   0.234E-08   0.252E-08   0.272E-08
   10.800   0.172E-08   0.173E-08   0.176E-08   0.182E-08   0.189E-08   0.198E-08   0.210E-08   0.224E-08   0.240E-08   0.258E-08   0.278E-08
   10.900   0.177E-08   0.178E-08   0.181E-08   0.187E-08   0.194E-08   0.204E-08   0.216E-08   0.230E-08   0.246E-08   0.264E-08   0.285E-08
   11.000   0.182E-08   0.183E-08   0.186E-08   0.192E-08   0.200E-08   0.209E-08   0.222E-08   0.236E-08   0.252E-08   0.271E-08   0.292E-08
   11.100   0.187E-08   0.188E-08   0.192E-08   0.197E-08   0.205E-08   0.215E-08   0.227E-08   0.242E-08   0.259E-08   0.278E-08   0.299E-08
   11.200   0.193E-08   0.194E-08   0.197E-08   0.203E-08   0.211E-08   0.221E-08   0.234E-08   0.248E-08   0.265E-08   0.285E-08   0.307E-08
   11.300   0.198E-08   0.199E-08   0.203E-08   0.208E-08   0.217E-08   0.227E-08   0.240E-08   0.255E-08   0.272E-08   0.292E-08   0.314E-08
   11.400   0.204E-08   0.205E-08   0.208E-08   0.214E-08   0.223E-08   0.233E-08   0.246E-08   0.262E-08   0.279E-08   0.299E-08   0.322E-08
   11.500   0.209E-08   0.211E-08   0.214E-08   0.220E-08   0.229E-08   0.240E-08   0.253E-08   0.268E-08   0.287E-08   0.307E-08   0.330E-08
   11.600   0.215E-08   0.217E-08   0.220E-08   0.227E-08   0.235E-08   0.246E-08   0.260E-08   0.276E-08   0.294E-08   0.315E-08   0.338E-08
   11.700   0.222E-08   0.223E-08   0.227E-08   0.233E-08   0.242E-08   0.253E-08   0.267E-08   0.283E-08   0.302E-08   0.323E-08   0.346E-08
   11.800   0.228E-08   0.229E-08   0.233E-08   0.239E-08   0.248E-08   0.260E-08   0.274E-08   0.290E-08   0.309E-08   0.331E-08   0.355E-08
   11.900   0.234E-08   0.236E-08   0.240E-08   0.246E-08   0.255E-08   0.267E-08   0.281E-08   0.298E-08   0.317E-08   0.339E-08   0.364E-08
   12.000   0.241E-08   0.242E-08   0.246E-08   0.253E-08   0.262E-08   0.274E-08   0.289E-08   0.306E-08   0.326E-08   0.348E-08   0.373E-08
   12.100   0.248E-08   0.249E-08   0.253E-08   0.260E-08   0.270E-08   0.282E-08   0.296E-08   0.314E-08   0.334E-08   0.357E-08   0.382E-08
   12.200   0.255E-08   0.256E-08   0.261E-08   0.267E-08   0.277E-08   0.289E-08   0.304E-08   0.322E-08   0.343E-08   0.366E-08   0.392E-08
   12.300   0.262E-08   0.264E-08   0.268E-08   0.275E-08   0.285E-08   0.297E-08   0.313E-08   0.331E-08   0.352E-08   0.375E-08   0.402E-08
   12.400   0.270E-08   0.271E-08   0.276E-08   0.283E-08   0.293E-08   0.306E-08   0.321E-08   0.340E-08   0.361E-08   0.385E-08   0.412E-08
   12.500   0.278E-08   0.279E-08   0.283E-08   0.291E-08   0.301E-08   0.314E-08   0.330E-08   0.349E-08   0.370E-08   0.395E-08   0.422E-08
   12.600   0.285E-08   0.287E-08   0.291E-08   0.299E-08   0.309E-08   0.323E-08   0.339E-08   0.358E-08   0.380E-08   0.405E-08   0.433E-08
   12.700   0.294E-08   0.295E-08   0.300E-08   0.307E-08   0.318E-08   0.332E-08   0.348E-08   0.368E-08   0.390E-08   0.415E-08   0.444E-08
   12.800   0.302E-08   0.304E-08   0.308E-08   0.316E-08   0.327E-08   0.341E-08   0.358E-08   0.377E-08   0.400E-08   0.426E-08   0.455E-08
   12.900   0.311E-08   0.312E-08   0.317E-08   0.325E-08   0.336E-08   0.350E-08   0.367E-08   0.388E-08   0.411E-08   0.437E-08   0.466E-08
   13.000   0.320E-08   0.321E-08   0.326E-08   0.334E-08   0.346E-08   0.360E-08   0.377E-08   0.398E-08   0.422E-08   0.449E-08   0.478E-08
   13.100   0.329E-08   0.331E-08   0.336E-08   0.344E-08   0.355E-08   0.370E-08   0.388E-08   0.409E-08   0.433E-08   0.460E-08   0.491E-08
   13.200   0.339E-08   0.340E-08   0.345E-08   0.354E-08   0.365E-08   0.380E-08   0.399E-08   0.420E-08   0.445E-08   0.472E-08   0.503E-08
   13.300   0.348E-08   0.350E-08   0.355E-08   0.364E-08   0.376E-08   0.391E-08   0.410E-08   0.431E-08   0.456E-08   0.485E-08   0.516E-08
   13.400   0.358E-08   0.360E-08   0.365E-08   0.374E-08   0.386E-08   0.402E-08   0.421E-08   0.443E-08   0.469E-08   0.497E-08   0.529E-08
   13.500   0.369E-08   0.371E-08   0.376E-08   0.385E-08   0.397E-08   0.413E-08   0.433E-08   0.455E-08   0.481E-08   0.511E-08   0.543E-08
   13.600   0.380E-08   0.382E-08   0.387E-08   0.396E-08   0.409E-08   0.425E-08   0.445E-08   0.468E-08   0.494E-08   0.524E-08   0.557E-08
