# fe1_the_009_022_photoabs_h_SMLO.dat                    
#
# Z =  9, A = 22
#
# Parameters:  Er1 = 19.089,  Wr1 =  5.970,  S1 =   0.400,  Er2 = 24.005,  Wr2 =  7.337,  S2 =   0.800,  beta=  0.273
# No. of entries:  300
# Col 1: photon energy E in MeV
# Col 2-11: E1 photoabsorption PSF (fe1 in MeV^-3) for nucleus at the temperatures T=0-2 MeV
# Format: f9.3, 11e12.3
# Authors:  V.A.Plujko, O.M. Gorbachenko, K.M. Solodovnyk (TSNU)
#   E         T=0.0       T=0.2       T=0.4       T=0.6       T=0.8       T=1.0       T=1.2       T=1.4       T=1.6       T=1.8       T=2.0
    0.100   0.296E-12   0.132E-11   0.536E-11   0.150E-10   0.328E-10   0.616E-10   0.104E-09   0.163E-09   0.240E-09   0.339E-09   0.463E-09
    0.200   0.118E-11   0.258E-11   0.754E-11   0.183E-10   0.376E-10   0.680E-10   0.112E-09   0.173E-09   0.253E-09   0.354E-09   0.480E-09
    0.300   0.266E-11   0.429E-11   0.101E-10   0.221E-10   0.427E-10   0.747E-10   0.121E-09   0.184E-09   0.266E-09   0.370E-09   0.499E-09
    0.400   0.474E-11   0.651E-11   0.131E-10   0.262E-10   0.483E-10   0.820E-10   0.130E-09   0.195E-09   0.279E-09   0.386E-09   0.518E-09
    0.500   0.740E-11   0.928E-11   0.166E-10   0.308E-10   0.543E-10   0.896E-10   0.139E-09   0.207E-09   0.293E-09   0.403E-09   0.537E-09
    0.600   0.107E-10   0.126E-10   0.206E-10   0.359E-10   0.608E-10   0.978E-10   0.150E-09   0.219E-09   0.308E-09   0.420E-09   0.557E-09
    0.700   0.145E-10   0.166E-10   0.251E-10   0.415E-10   0.678E-10   0.106E-09   0.160E-09   0.231E-09   0.323E-09   0.438E-09   0.578E-09
    0.800   0.190E-10   0.212E-10   0.302E-10   0.476E-10   0.753E-10   0.116E-09   0.171E-09   0.245E-09   0.339E-09   0.456E-09   0.600E-09
    0.900   0.240E-10   0.263E-10   0.359E-10   0.543E-10   0.833E-10   0.125E-09   0.183E-09   0.259E-09   0.355E-09   0.475E-09   0.621E-09
    1.000   0.297E-10   0.322E-10   0.421E-10   0.615E-10   0.918E-10   0.135E-09   0.195E-09   0.273E-09   0.372E-09   0.495E-09   0.644E-09
    1.100   0.360E-10   0.386E-10   0.490E-10   0.692E-10   0.101E-09   0.146E-09   0.208E-09   0.288E-09   0.389E-09   0.515E-09   0.667E-09
    1.200   0.429E-10   0.457E-10   0.564E-10   0.776E-10   0.111E-09   0.158E-09   0.221E-09   0.303E-09   0.408E-09   0.536E-09   0.691E-09
    1.300   0.504E-10   0.534E-10   0.645E-10   0.865E-10   0.121E-09   0.170E-09   0.235E-09   0.320E-09   0.426E-09   0.557E-09   0.716E-09
    1.400   0.585E-10   0.617E-10   0.733E-10   0.961E-10   0.132E-09   0.182E-09   0.249E-09   0.336E-09   0.446E-09   0.580E-09   0.741E-09
    1.500   0.672E-10   0.707E-10   0.827E-10   0.106E-09   0.143E-09   0.195E-09   0.265E-09   0.354E-09   0.466E-09   0.602E-09   0.767E-09
    1.600   0.766E-10   0.802E-10   0.927E-10   0.117E-09   0.155E-09   0.209E-09   0.280E-09   0.372E-09   0.486E-09   0.626E-09   0.794E-09
    1.700   0.866E-10   0.905E-10   0.103E-09   0.129E-09   0.168E-09   0.223E-09   0.297E-09   0.391E-09   0.508E-09   0.650E-09   0.821E-09
    1.800   0.973E-10   0.101E-09   0.115E-09   0.141E-09   0.182E-09   0.238E-09   0.314E-09   0.410E-09   0.530E-09   0.675E-09   0.850E-09
    1.900   0.109E-09   0.113E-09   0.127E-09   0.154E-09   0.196E-09   0.254E-09   0.332E-09   0.430E-09   0.552E-09   0.701E-09   0.879E-09
    2.000   0.121E-09   0.125E-09   0.140E-09   0.167E-09   0.210E-09   0.271E-09   0.350E-09   0.451E-09   0.576E-09   0.728E-09   0.908E-09
    2.100   0.133E-09   0.138E-09   0.153E-09   0.182E-09   0.226E-09   0.288E-09   0.369E-09   0.472E-09   0.600E-09   0.755E-09   0.939E-09
    2.200   0.146E-09   0.151E-09   0.167E-09   0.197E-09   0.242E-09   0.306E-09   0.389E-09   0.495E-09   0.625E-09   0.783E-09   0.971E-09
    2.300   0.160E-09   0.166E-09   0.182E-09   0.212E-09   0.259E-09   0.324E-09   0.410E-09   0.518E-09   0.651E-09   0.812E-09   0.100E-08
    2.400   0.175E-09   0.180E-09   0.197E-09   0.229E-09   0.277E-09   0.343E-09   0.431E-09   0.542E-09   0.678E-09   0.841E-09   0.104E-08
    2.500   0.190E-09   0.196E-09   0.214E-09   0.246E-09   0.295E-09   0.363E-09   0.453E-09   0.566E-09   0.705E-09   0.872E-09   0.107E-08
    2.600   0.206E-09   0.212E-09   0.231E-09   0.264E-09   0.314E-09   0.384E-09   0.476E-09   0.592E-09   0.733E-09   0.903E-09   0.110E-08
    2.700   0.223E-09   0.229E-09   0.248E-09   0.282E-09   0.334E-09   0.406E-09   0.500E-09   0.618E-09   0.762E-09   0.936E-09   0.114E-08
    2.800   0.240E-09   0.247E-09   0.267E-09   0.302E-09   0.355E-09   0.428E-09   0.524E-09   0.645E-09   0.792E-09   0.969E-09   0.118E-08
    2.900   0.259E-09   0.265E-09   0.286E-09   0.322E-09   0.376E-09   0.451E-09   0.550E-09   0.673E-09   0.823E-09   0.100E-08   0.122E-08
    3.000   0.278E-09   0.285E-09   0.306E-09   0.343E-09   0.398E-09   0.476E-09   0.576E-09   0.701E-09   0.855E-09   0.104E-08   0.125E-08
    3.100   0.297E-09   0.304E-09   0.326E-09   0.364E-09   0.422E-09   0.500E-09   0.603E-09   0.731E-09   0.887E-09   0.107E-08   0.129E-08
    3.200   0.318E-09   0.325E-09   0.348E-09   0.387E-09   0.445E-09   0.526E-09   0.631E-09   0.762E-09   0.921E-09   0.111E-08   0.133E-08
    3.300   0.339E-09   0.347E-09   0.370E-09   0.410E-09   0.470E-09   0.553E-09   0.660E-09   0.793E-09   0.955E-09   0.115E-08   0.138E-08
    3.400   0.361E-09   0.369E-09   0.393E-09   0.434E-09   0.496E-09   0.580E-09   0.689E-09   0.825E-09   0.991E-09   0.119E-08   0.142E-08
    3.500   0.384E-09   0.392E-09   0.417E-09   0.459E-09   0.522E-09   0.609E-09   0.720E-09   0.859E-09   0.103E-08   0.123E-08   0.146E-08
    3.600   0.407E-09   0.416E-09   0.441E-09   0.485E-09   0.550E-09   0.638E-09   0.752E-09   0.893E-09   0.106E-08   0.127E-08   0.151E-08
    3.700   0.432E-09   0.440E-09   0.467E-09   0.512E-09   0.578E-09   0.668E-09   0.784E-09   0.929E-09   0.110E-08   0.131E-08   0.155E-08
    3.800   0.457E-09   0.466E-09   0.493E-09   0.539E-09   0.607E-09   0.699E-09   0.818E-09   0.965E-09   0.114E-08   0.135E-08   0.160E-08
    3.900   0.483E-09   0.492E-09   0.520E-09   0.568E-09   0.637E-09   0.731E-09   0.852E-09   0.100E-08   0.118E-08   0.140E-08   0.165E-08
    4.000   0.510E-09   0.520E-09   0.549E-09   0.597E-09   0.668E-09   0.764E-09   0.888E-09   0.104E-08   0.123E-08   0.144E-08   0.170E-08
    4.100   0.538E-09   0.548E-09   0.578E-09   0.628E-09   0.700E-09   0.799E-09   0.924E-09   0.108E-08   0.127E-08   0.149E-08   0.175E-08
    4.200   0.567E-09   0.577E-09   0.608E-09   0.659E-09   0.733E-09   0.834E-09   0.962E-09   0.112E-08   0.131E-08   0.154E-08   0.180E-08
    4.300   0.597E-09   0.607E-09   0.638E-09   0.691E-09   0.767E-09   0.870E-09   0.100E-08   0.116E-08   0.136E-08   0.159E-08   0.186E-08
    4.400   0.627E-09   0.638E-09   0.670E-09   0.724E-09   0.803E-09   0.907E-09   0.104E-08   0.121E-08   0.140E-08   0.164E-08   0.191E-08
    4.500   0.659E-09   0.670E-09   0.703E-09   0.759E-09   0.839E-09   0.945E-09   0.108E-08   0.125E-08   0.145E-08   0.169E-08   0.197E-08
    4.600   0.692E-09   0.703E-09   0.737E-09   0.794E-09   0.876E-09   0.985E-09   0.112E-08   0.130E-08   0.150E-08   0.174E-08   0.203E-08
    4.700   0.725E-09   0.737E-09   0.772E-09   0.830E-09   0.914E-09   0.103E-08   0.117E-08   0.134E-08   0.155E-08   0.180E-08   0.209E-08
    4.800   0.760E-09   0.772E-09   0.808E-09   0.868E-09   0.953E-09   0.107E-08   0.121E-08   0.139E-08   0.160E-08   0.185E-08   0.215E-08
    4.900   0.796E-09   0.808E-09   0.845E-09   0.906E-09   0.994E-09   0.111E-08   0.126E-08   0.144E-08   0.166E-08   0.191E-08   0.221E-08
    5.000   0.833E-09   0.845E-09   0.883E-09   0.946E-09   0.104E-08   0.115E-08   0.130E-08   0.149E-08   0.171E-08   0.197E-08   0.227E-08
    5.100   0.870E-09   0.883E-09   0.922E-09   0.987E-09   0.108E-08   0.120E-08   0.135E-08   0.154E-08   0.177E-08   0.203E-08   0.234E-08
    5.200   0.910E-09   0.923E-09   0.962E-09   0.103E-08   0.112E-08   0.125E-08   0.140E-08   0.159E-08   0.182E-08   0.209E-08   0.240E-08
    5.300   0.950E-09   0.963E-09   0.100E-08   0.107E-08   0.117E-08   0.129E-08   0.145E-08   0.165E-08   0.188E-08   0.216E-08   0.247E-08
    5.400   0.991E-09   0.100E-08   0.105E-08   0.112E-08   0.121E-08   0.134E-08   0.151E-08   0.170E-08   0.194E-08   0.222E-08   0.254E-08
    5.500   0.103E-08   0.105E-08   0.109E-08   0.116E-08   0.126E-08   0.139E-08   0.156E-08   0.176E-08   0.200E-08   0.229E-08   0.261E-08
    5.600   0.108E-08   0.109E-08   0.114E-08   0.121E-08   0.131E-08   0.145E-08   0.161E-08   0.182E-08   0.207E-08   0.236E-08   0.269E-08
    5.700   0.112E-08   0.114E-08   0.118E-08   0.126E-08   0.136E-08   0.150E-08   0.167E-08   0.188E-08   0.213E-08   0.243E-08   0.276E-08
    5.800   0.117E-08   0.118E-08   0.123E-08   0.131E-08   0.141E-08   0.155E-08   0.173E-08   0.194E-08   0.220E-08   0.250E-08   0.284E-08
    5.900   0.122E-08   0.123E-08   0.128E-08   0.136E-08   0.147E-08   0.161E-08   0.179E-08   0.201E-08   0.227E-08   0.257E-08   0.292E-08
    6.000   0.127E-08   0.128E-08   0.133E-08   0.141E-08   0.152E-08   0.167E-08   0.185E-08   0.207E-08   0.234E-08   0.265E-08   0.300E-08
    6.100   0.132E-08   0.133E-08   0.138E-08   0.146E-08   0.158E-08   0.173E-08   0.191E-08   0.214E-08   0.241E-08   0.272E-08   0.308E-08
    6.200   0.137E-08   0.139E-08   0.144E-08   0.152E-08   0.164E-08   0.179E-08   0.198E-08   0.221E-08   0.248E-08   0.280E-08   0.317E-08
    6.300   0.142E-08   0.144E-08   0.149E-08   0.158E-08   0.170E-08   0.185E-08   0.205E-08   0.228E-08   0.256E-08   0.288E-08   0.326E-08
    6.400   0.148E-08   0.149E-08   0.155E-08   0.163E-08   0.176E-08   0.192E-08   0.211E-08   0.235E-08   0.264E-08   0.297E-08   0.334E-08
    6.500   0.153E-08   0.155E-08   0.161E-08   0.169E-08   0.182E-08   0.198E-08   0.218E-08   0.243E-08   0.272E-08   0.305E-08   0.344E-08
    6.600   0.159E-08   0.161E-08   0.166E-08   0.176E-08   0.188E-08   0.205E-08   0.226E-08   0.250E-08   0.280E-08   0.314E-08   0.353E-08
    6.700   0.165E-08   0.167E-08   0.173E-08   0.182E-08   0.195E-08   0.212E-08   0.233E-08   0.258E-08   0.288E-08   0.323E-08   0.363E-08
    6.800   0.171E-08   0.173E-08   0.179E-08   0.188E-08   0.202E-08   0.219E-08   0.240E-08   0.266E-08   0.297E-08   0.332E-08   0.373E-08
    6.900   0.178E-08   0.180E-08   0.185E-08   0.195E-08   0.209E-08   0.226E-08   0.248E-08   0.275E-08   0.306E-08   0.342E-08   0.383E-08
    7.000   0.184E-08   0.186E-08   0.192E-08   0.202E-08   0.216E-08   0.234E-08   0.256E-08   0.283E-08   0.315E-08   0.351E-08   0.393E-08
    7.100   0.191E-08   0.193E-08   0.199E-08   0.209E-08   0.223E-08   0.242E-08   0.264E-08   0.292E-08   0.324E-08   0.361E-08   0.404E-08
    7.200   0.198E-08   0.200E-08   0.206E-08   0.216E-08   0.231E-08   0.250E-08   0.273E-08   0.301E-08   0.333E-08   0.371E-08   0.414E-08
    7.300   0.205E-08   0.207E-08   0.213E-08   0.224E-08   0.239E-08   0.258E-08   0.282E-08   0.310E-08   0.343E-08   0.382E-08   0.426E-08
    7.400   0.212E-08   0.214E-08   0.221E-08   0.232E-08   0.247E-08   0.266E-08   0.290E-08   0.319E-08   0.353E-08   0.392E-08   0.437E-08
    7.500   0.220E-08   0.222E-08   0.229E-08   0.240E-08   0.255E-08   0.275E-08   0.300E-08   0.329E-08   0.364E-08   0.403E-08   0.449E-08
    7.600   0.227E-08   0.230E-08   0.236E-08   0.248E-08   0.263E-08   0.284E-08   0.309E-08   0.339E-08   0.374E-08   0.415E-08   0.461E-08
    7.700   0.235E-08   0.238E-08   0.245E-08   0.256E-08   0.272E-08   0.293E-08   0.319E-08   0.349E-08   0.385E-08   0.426E-08   0.473E-08
    7.800   0.244E-08   0.246E-08   0.253E-08   0.265E-08   0.281E-08   0.302E-08   0.328E-08   0.360E-08   0.396E-08   0.438E-08   0.486E-08
    7.900   0.252E-08   0.254E-08   0.262E-08   0.274E-08   0.290E-08   0.312E-08   0.339E-08   0.370E-08   0.408E-08   0.450E-08   0.499E-08
    8.000   0.261E-08   0.263E-08   0.270E-08   0.283E-08   0.300E-08   0.322E-08   0.349E-08   0.381E-08   0.419E-08   0.463E-08   0.512E-08
    8.100   0.269E-08   0.272E-08   0.279E-08   0.292E-08   0.310E-08   0.332E-08   0.360E-08   0.393E-08   0.431E-08   0.476E-08   0.526E-08
    8.200   0.279E-08   0.281E-08   0.289E-08   0.302E-08   0.320E-08   0.343E-08   0.371E-08   0.404E-08   0.444E-08   0.489E-08   0.540E-08
    8.300   0.288E-08   0.291E-08   0.299E-08   0.312E-08   0.330E-08   0.353E-08   0.382E-08   0.416E-08   0.456E-08   0.502E-08   0.554E-08
    8.400   0.298E-08   0.300E-08   0.308E-08   0.322E-08   0.340E-08   0.364E-08   0.394E-08   0.429E-08   0.470E-08   0.516E-08   0.569E-08
    8.500   0.308E-08   0.311E-08   0.319E-08   0.332E-08   0.351E-08   0.376E-08   0.406E-08   0.441E-08   0.483E-08   0.530E-08   0.584E-08
    8.600   0.318E-08   0.321E-08   0.329E-08   0.343E-08   0.363E-08   0.388E-08   0.418E-08   0.454E-08   0.497E-08   0.545E-08   0.600E-08
    8.700   0.329E-08   0.332E-08   0.340E-08   0.354E-08   0.374E-08   0.400E-08   0.431E-08   0.468E-08   0.511E-08   0.560E-08   0.616E-08
    8.800   0.340E-08   0.343E-08   0.351E-08   0.366E-08   0.386E-08   0.412E-08   0.444E-08   0.482E-08   0.525E-08   0.576E-08   0.632E-08
    8.900   0.351E-08   0.354E-08   0.363E-08   0.378E-08   0.398E-08   0.425E-08   0.457E-08   0.496E-08   0.540E-08   0.591E-08   0.649E-08
    9.000   0.362E-08   0.365E-08   0.375E-08   0.390E-08   0.411E-08   0.438E-08   0.471E-08   0.510E-08   0.556E-08   0.608E-08   0.666E-08
    9.100   0.374E-08   0.378E-08   0.387E-08   0.402E-08   0.424E-08   0.451E-08   0.485E-08   0.525E-08   0.572E-08   0.625E-08   0.684E-08
    9.200   0.387E-08   0.390E-08   0.399E-08   0.415E-08   0.437E-08   0.465E-08   0.500E-08   0.541E-08   0.588E-08   0.642E-08   0.702E-08
    9.300   0.399E-08   0.403E-08   0.412E-08   0.428E-08   0.451E-08   0.480E-08   0.515E-08   0.556E-08   0.605E-08   0.659E-08   0.721E-08
    9.400   0.413E-08   0.416E-08   0.426E-08   0.442E-08   0.465E-08   0.494E-08   0.530E-08   0.573E-08   0.622E-08   0.678E-08   0.740E-08
    9.500   0.426E-08   0.429E-08   0.439E-08   0.456E-08   0.480E-08   0.510E-08   0.546E-08   0.590E-08   0.640E-08   0.696E-08   0.760E-08
    9.600   0.440E-08   0.443E-08   0.454E-08   0.471E-08   0.495E-08   0.525E-08   0.563E-08   0.607E-08   0.658E-08   0.716E-08   0.780E-08
    9.700   0.454E-08   0.458E-08   0.468E-08   0.486E-08   0.510E-08   0.541E-08   0.580E-08   0.625E-08   0.676E-08   0.735E-08   0.801E-08
    9.800   0.469E-08   0.473E-08   0.483E-08   0.501E-08   0.526E-08   0.558E-08   0.597E-08   0.643E-08   0.696E-08   0.756E-08   0.823E-08
    9.900   0.484E-08   0.488E-08   0.499E-08   0.517E-08   0.543E-08   0.575E-08   0.615E-08   0.662E-08   0.716E-08   0.777E-08   0.845E-08
   10.000   0.500E-08   0.504E-08   0.515E-08   0.534E-08   0.560E-08   0.593E-08   0.633E-08   0.681E-08   0.736E-08   0.798E-08   0.868E-08
   10.100   0.516E-08   0.520E-08   0.532E-08   0.551E-08   0.577E-08   0.611E-08   0.652E-08   0.701E-08   0.757E-08   0.820E-08   0.891E-08
   10.200   0.533E-08   0.537E-08   0.549E-08   0.568E-08   0.595E-08   0.630E-08   0.672E-08   0.722E-08   0.779E-08   0.843E-08   0.915E-08
   10.300   0.551E-08   0.555E-08   0.566E-08   0.586E-08   0.614E-08   0.649E-08   0.692E-08   0.743E-08   0.801E-08   0.867E-08   0.940E-08
   10.400   0.568E-08   0.573E-08   0.585E-08   0.605E-08   0.633E-08   0.669E-08   0.713E-08   0.765E-08   0.824E-08   0.891E-08   0.965E-08
   10.500   0.587E-08   0.591E-08   0.604E-08   0.624E-08   0.653E-08   0.690E-08   0.735E-08   0.787E-08   0.848E-08   0.916E-08   0.991E-08
   10.600   0.606E-08   0.610E-08   0.623E-08   0.644E-08   0.674E-08   0.711E-08   0.757E-08   0.811E-08   0.872E-08   0.942E-08   0.102E-07
   10.700   0.626E-08   0.630E-08   0.643E-08   0.665E-08   0.695E-08   0.733E-08   0.780E-08   0.835E-08   0.897E-08   0.968E-08   0.105E-07
   10.800   0.646E-08   0.651E-08   0.664E-08   0.686E-08   0.717E-08   0.756E-08   0.804E-08   0.860E-08   0.923E-08   0.995E-08   0.107E-07
   10.900   0.668E-08   0.672E-08   0.686E-08   0.708E-08   0.740E-08   0.780E-08   0.828E-08   0.885E-08   0.950E-08   0.102E-07   0.110E-07
   11.000   0.689E-08   0.694E-08   0.708E-08   0.731E-08   0.763E-08   0.804E-08   0.853E-08   0.911E-08   0.978E-08   0.105E-07   0.113E-07
   11.100   0.712E-08   0.717E-08   0.731E-08   0.754E-08   0.787E-08   0.829E-08   0.879E-08   0.939E-08   0.101E-07   0.108E-07   0.117E-07
   11.200   0.736E-08   0.740E-08   0.755E-08   0.779E-08   0.812E-08   0.855E-08   0.906E-08   0.967E-08   0.104E-07   0.111E-07   0.120E-07
   11.300   0.760E-08   0.765E-08   0.779E-08   0.804E-08   0.838E-08   0.882E-08   0.934E-08   0.996E-08   0.107E-07   0.114E-07   0.123E-07
   11.400   0.785E-08   0.790E-08   0.805E-08   0.830E-08   0.865E-08   0.909E-08   0.963E-08   0.103E-07   0.110E-07   0.118E-07   0.126E-07
   11.500   0.811E-08   0.816E-08   0.831E-08   0.857E-08   0.893E-08   0.938E-08   0.993E-08   0.106E-07   0.113E-07   0.121E-07   0.130E-07
   11.600   0.838E-08   0.843E-08   0.859E-08   0.885E-08   0.921E-08   0.968E-08   0.102E-07   0.109E-07   0.116E-07   0.125E-07   0.134E-07
   11.700   0.866E-08   0.871E-08   0.887E-08   0.914E-08   0.951E-08   0.998E-08   0.106E-07   0.112E-07   0.120E-07   0.128E-07   0.137E-07
   11.800   0.895E-08   0.900E-08   0.917E-08   0.944E-08   0.982E-08   0.103E-07   0.109E-07   0.116E-07   0.123E-07   0.132E-07   0.141E-07
   11.900   0.925E-08   0.930E-08   0.947E-08   0.975E-08   0.101E-07   0.106E-07   0.112E-07   0.119E-07   0.127E-07   0.136E-07   0.145E-07
   12.000   0.956E-08   0.962E-08   0.979E-08   0.101E-07   0.105E-07   0.110E-07   0.116E-07   0.123E-07   0.131E-07   0.140E-07   0.149E-07
   12.100   0.988E-08   0.994E-08   0.101E-07   0.104E-07   0.108E-07   0.113E-07   0.119E-07   0.127E-07   0.135E-07   0.144E-07   0.153E-07
   12.200   0.102E-07   0.103E-07   0.105E-07   0.108E-07   0.112E-07   0.117E-07   0.123E-07   0.130E-07   0.139E-07   0.148E-07   0.158E-07
   12.300   0.106E-07   0.106E-07   0.108E-07   0.111E-07   0.115E-07   0.121E-07   0.127E-07   0.135E-07   0.143E-07   0.152E-07   0.162E-07
   12.400   0.109E-07   0.110E-07   0.112E-07   0.115E-07   0.119E-07   0.125E-07   0.131E-07   0.139E-07   0.147E-07   0.157E-07   0.167E-07
   12.500   0.113E-07   0.114E-07   0.116E-07   0.119E-07   0.123E-07   0.129E-07   0.135E-07   0.143E-07   0.152E-07   0.161E-07   0.172E-07
   12.600   0.117E-07   0.118E-07   0.120E-07   0.123E-07   0.127E-07   0.133E-07   0.140E-07   0.148E-07   0.156E-07   0.166E-07   0.176E-07
   12.700   0.121E-07   0.122E-07   0.124E-07   0.127E-07   0.131E-07   0.137E-07   0.144E-07   0.152E-07   0.161E-07   0.171E-07   0.181E-07
   12.800   0.125E-07   0.126E-07   0.128E-07   0.131E-07   0.136E-07   0.142E-07   0.149E-07   0.157E-07   0.166E-07   0.176E-07   0.187E-07
   12.900   0.130E-07   0.130E-07   0.132E-07   0.136E-07   0.141E-07   0.147E-07   0.154E-07   0.162E-07   0.171E-07   0.181E-07   0.192E-07
   13.000   0.134E-07   0.135E-07   0.137E-07   0.140E-07   0.145E-07   0.151E-07   0.159E-07   0.167E-07   0.176E-07   0.187E-07   0.198E-07
   13.100   0.139E-07   0.140E-07   0.142E-07   0.145E-07   0.150E-07   0.157E-07   0.164E-07   0.172E-07   0.182E-07   0.192E-07   0.203E-07
   13.200   0.144E-07   0.145E-07   0.147E-07   0.150E-07   0.155E-07   0.162E-07   0.169E-07   0.178E-07   0.188E-07   0.198E-07   0.209E-07
   13.300   0.149E-07   0.150E-07   0.152E-07   0.156E-07   0.161E-07   0.167E-07   0.175E-07   0.184E-07   0.194E-07   0.204E-07   0.215E-07
   13.400   0.154E-07   0.155E-07   0.157E-07   0.161E-07   0.166E-07   0.173E-07   0.181E-07   0.190E-07   0.200E-07   0.210E-07   0.221E-07
   13.500   0.160E-07   0.161E-07   0.163E-07   0.167E-07   0.172E-07   0.179E-07   0.187E-07   0.196E-07   0.206E-07   0.217E-07   0.228E-07
